# lambda	flux
 202.0 0.005718
 203.0 0.005722
 204.0 0.005726
 205.0 0.00573
 206.0 0.0057122
 207.0 0.0056944
 208.0 0.0056766
 209.0 0.0056588
 210.0 0.005641
 211.0 0.00566266666667
 212.0 0.00568433333333
 213.0 0.005706
 214.0 0.00572766666667
 215.0 0.00574933333333
 216.0 0.005771
 217.0 0.0057775
 218.0 0.005784
 219.0 0.0057905
 220.0 0.005797
 221.0 0.005791
 222.0 0.005785
 223.0 0.005779
 224.0 0.00578925
 225.0 0.0057995
 226.0 0.00580975
 227.0 0.00582
 228.0 0.00630266666667
 229.0 0.00678533333333
 230.0 0.007268
 231.0 0.008111
 232.0 0.008954
 233.0 0.009797
 234.0 0.01064
 235.0 0.0110266666667
 236.0 0.0114133333333
 237.0 0.0118
 238.0 0.0121866666667
 239.0 0.0125733333333
 240.0 0.01296
 241.0 0.0128316666667
 242.0 0.0127033333333
 243.0 0.012575
 244.0 0.0124466666667
 245.0 0.0123183333333
 246.0 0.01219
 247.0 0.0122233333333
 248.0 0.0122566666667
 249.0 0.01229
 250.0 0.0123233333333
 251.0 0.0123566666667
 252.0 0.01239
 253.0 0.011897
 254.0 0.011404
 255.0 0.010911
 256.0 0.010418
 257.0 0.009925
 258.0 0.0105133333333
 259.0 0.0111016666667
 260.0 0.01169
 261.0 0.0117875
 262.0 0.011885
 263.0 0.0119825
 264.0 0.01208
 265.0 0.012034
 266.0 0.011988
 267.0 0.011942
 268.0 0.011896
 269.0 0.01185
 270.0 0.011794
 271.0 0.011738
 272.0 0.011682
 273.0 0.011626
 274.0 0.01157
 275.0 0.011508
 276.0 0.011446
 277.0 0.011384
 278.0 0.011322
 279.0 0.01126
 280.0 0.011224
 281.0 0.011188
 282.0 0.011152
 283.0 0.011116
 284.0 0.01108
 285.0 0.0109633333333
 286.0 0.0108466666667
 287.0 0.01073
 288.0 0.0106133333333
 289.0 0.0104966666667
 290.0 0.01038
 291.0 0.0103533333333
 292.0 0.0103266666667
 293.0 0.0103
 294.0 0.0102733333333
 295.0 0.0102466666667
 296.0 0.01022
 297.0 0.0100694
 298.0 0.0099188
 299.0 0.0097682
 300.0 0.0096176
 301.0 0.009467
 302.0 0.009477
 303.0 0.009487
 304.0 0.009497
 305.0 0.009507
 306.0 0.009517
 307.0 0.009527
 308.0 0.009537
 309.0 0.0095421
 310.0 0.0095472
 311.0 0.0095523
 312.0 0.0095574
 313.0 0.0095625
 314.0 0.0095676
 315.0 0.0095727
 316.0 0.0095778
 317.0 0.0095829
 318.0 0.009588
 319.0 0.0095501
 320.0 0.0095122
 321.0 0.0094743
 322.0 0.0094364
 323.0 0.0093985
 324.0 0.0093606
 325.0 0.0093227
 326.0 0.0092848
 327.0 0.0092469
 328.0 0.009209
 329.0 0.0091669
 330.0 0.0091248
 331.0 0.0090827
 332.0 0.0090406
 333.0 0.0089985
 334.0 0.0089564
 335.0 0.0089143
 336.0 0.0088722
 337.0 0.0088301
 338.0 0.008788
 339.0 0.0087459
 340.0 0.0087038
 341.0 0.0086617
 342.0 0.0086196
 343.0 0.0085775
 344.0 0.0085354
 345.0 0.0084933
 346.0 0.0084512
 347.0 0.0084091
 348.0 0.008367
 349.0 0.00834188888889
 350.0 0.00831677777778
 351.0 0.00829166666667
 352.0 0.00826655555556
 353.0 0.00824144444444
 354.0 0.00821633333333
 355.0 0.00819122222222
 356.0 0.00816611111111
 357.0 0.008141
 358.0 0.00812788888889
 359.0 0.00811477777778
 360.0 0.00810166666667
 361.0 0.00808855555556
 362.0 0.00807544444444
 363.0 0.00806233333333
 364.0 0.00804922222222
 365.0 0.00803611111111
 366.0 0.008023
 367.0 0.00798677777778
 368.0 0.00795055555556
 369.0 0.00791433333333
 370.0 0.00787811111111
 371.0 0.00784188888889
 372.0 0.00780566666667
 373.0 0.00776944444444
 374.0 0.00773322222222
 375.0 0.007697
 376.0 0.0076391
 377.0 0.0075812
 378.0 0.0075233
 379.0 0.0074654
 380.0 0.0074075
 381.0 0.0073496
 382.0 0.0072917
 383.0 0.0072338
 384.0 0.0071759
 385.0 0.007118
 386.0 0.0071179
 387.0 0.0071178
 388.0 0.0071177
 389.0 0.0071176
 390.0 0.0071175
 391.0 0.0071174
 392.0 0.0071173
 393.0 0.0071172
 394.0 0.0071171
 395.0 0.007117
 396.0 0.0071003
 397.0 0.0070836
 398.0 0.0070669
 399.0 0.0070502
 400.0 0.0070335
 401.0 0.0070168
 402.0 0.0070001
 403.0 0.0069834
 404.0 0.0069667
 405.0 0.00695
 406.0 0.00691988888889
 407.0 0.00688977777778
 408.0 0.00685966666667
 409.0 0.00682955555556
 410.0 0.00679944444444
 411.0 0.00676933333333
 412.0 0.00673922222222
 413.0 0.00670911111111
 414.0 0.006679
 415.0 0.00664325
 416.0 0.0066075
 417.0 0.00657175
 418.0 0.006536
 419.0 0.00650025
 420.0 0.0064645
 421.0 0.00642875
 422.0 0.006393
 423.0 0.00635975
 424.0 0.0063265
 425.0 0.00629325
 426.0 0.00626
 427.0 0.00622675
 428.0 0.0061935
 429.0 0.00616025
 430.0 0.006127
 431.0 0.00611109090909
 432.0 0.00609518181818
 433.0 0.00607927272727
 434.0 0.00606336363636
 435.0 0.00604745454545
 436.0 0.00603154545455
 437.0 0.00601563636364
 438.0 0.00599972727273
 439.0 0.00598381818182
 440.0 0.00596790909091
 441.0 0.005952
 442.0 0.005929
 443.0 0.005906
 444.0 0.005883
 445.0 0.00586
 446.0 0.005837
 447.0 0.005814
 448.0 0.005791
 449.0 0.005768
 450.0 0.005745
 451.0 0.005722
 452.0 0.00569077777778
 453.0 0.00565955555556
 454.0 0.00562833333333
 455.0 0.00559711111111
 456.0 0.00556588888889
 457.0 0.00553466666667
 458.0 0.00550344444444
 459.0 0.00547222222222
 460.0 0.005441
 461.0 0.0054197
 462.0 0.0053984
 463.0 0.0053771
 464.0 0.0053558
 465.0 0.0053345
 466.0 0.0053132
 467.0 0.0052919
 468.0 0.0052706
 469.0 0.0052493
 470.0 0.005228
 471.0 0.0052145
 472.0 0.005201
 473.0 0.0051875
 474.0 0.005174
 475.0 0.0051605
 476.0 0.005147
 477.0 0.0051335
 478.0 0.00512
 479.0 0.0051065
 480.0 0.005093
 481.0 0.0050622
 482.0 0.0050314
 483.0 0.0050006
 484.0 0.0049698
 485.0 0.004939
 486.0 0.0049082
 487.0 0.0048774
 488.0 0.0048466
 489.0 0.0048158
 490.0 0.004785
 491.0 0.0047788
 492.0 0.0047726
 493.0 0.0047664
 494.0 0.0047602
 495.0 0.004754
 496.0 0.0047478
 497.0 0.0047416
 498.0 0.0047354
 499.0 0.0047292
 500.0 0.004723
 501.0 0.004696
 502.0 0.004669
 503.0 0.004642
 504.0 0.004615
 505.0 0.004588
 506.0 0.004561
 507.0 0.00462566666667
 508.0 0.00469033333333
 509.0 0.004755
 510.0 0.00481966666667
 511.0 0.00488433333333
 512.0 0.004949
 513.0 0.004924375
 514.0 0.00489975
 515.0 0.004875125
 516.0 0.0048505
 517.0 0.004825875
 518.0 0.00480125
 519.0 0.004776625
 520.0 0.004752
 521.0 0.0047276
 522.0 0.0047032
 523.0 0.0046788
 524.0 0.0046544
 525.0 0.00463
 526.0 0.0046056
 527.0 0.0045812
 528.0 0.0045568
 529.0 0.0045324
 530.0 0.004508
 531.0 0.004477
 532.0 0.004446
 533.0 0.004415
 534.0 0.004384
 535.0 0.004353
 536.0 0.004322
 537.0 0.004291
 538.0 0.00426
 539.0 0.004229
 540.0 0.004198
 541.0 0.0041818
 542.0 0.0041656
 543.0 0.0041494
 544.0 0.0041332
 545.0 0.004117
 546.0 0.0041008
 547.0 0.0040846
 548.0 0.0040684
 549.0 0.0040522
 550.0 0.004036
 551.0 0.0040444
 552.0 0.0040528
 553.0 0.0040612
 554.0 0.0040696
 555.0 0.004078
 556.0 0.0040864
 557.0 0.0040948
 558.0 0.0041032
 559.0 0.0041116
 560.0 0.00412
 561.0 0.0041133
 562.0 0.0041066
 563.0 0.0040999
 564.0 0.0040932
 565.0 0.0040865
 566.0 0.0040798
 567.0 0.0040731
 568.0 0.0040664
 569.0 0.0040597
 570.0 0.004053
 571.0 0.0040347
 572.0 0.0040164
 573.0 0.0039981
 574.0 0.0039798
 575.0 0.0039615
 576.0 0.0039432
 577.0 0.0039249
 578.0 0.0039066
 579.0 0.0038883
 580.0 0.00387
 581.0 0.0038607
 582.0 0.0038514
 583.0 0.0038421
 584.0 0.0038328
 585.0 0.0038235
 586.0 0.0038142
 587.0 0.0038049
 588.0 0.0037956
 589.0 0.0037863
 590.0 0.003777
 591.0 0.0037529
 592.0 0.0037288
 593.0 0.0037047
 594.0 0.0036806
 595.0 0.0036565
 596.0 0.0036324
 597.0 0.0036083
 598.0 0.0035842
 599.0 0.0035601
 600.0 0.003536
 601.0 0.0034972
 602.0 0.0034584
 603.0 0.0034196
 604.0 0.0033808
 605.0 0.003342
 606.0 0.0033032
 607.0 0.0032644
 608.0 0.0032256
 609.0 0.0031868
 610.0 0.003148
 611.0 0.003181
 612.0 0.003214
 613.0 0.003247
 614.0 0.00328
 615.0 0.003313
 616.0 0.003346
 617.0 0.003379
 618.0 0.003412
 619.0 0.003445
 620.0 0.003478
 621.0 0.0034625
 622.0 0.003447
 623.0 0.0034315
 624.0 0.003416
 625.0 0.0034005
 626.0 0.003385
 627.0 0.0033695
 628.0 0.003354
 629.0 0.0033385
 630.0 0.003323
 631.0 0.0033193
 632.0 0.0033156
 633.0 0.0033119
 634.0 0.0033082
 635.0 0.0033045
 636.0 0.0033008
 637.0 0.0032971
 638.0 0.0032934
 639.0 0.0032897
 640.0 0.003286
 641.0 0.0032731
 642.0 0.0032602
 643.0 0.0032473
 644.0 0.0032344
 645.0 0.0032215
 646.0 0.0032086
 647.0 0.0031957
 648.0 0.0031828
 649.0 0.0031699
 650.0 0.003157
 651.0 0.003140125
 652.0 0.00312325
 653.0 0.003106375
 654.0 0.0030895
 655.0 0.003072625
 656.0 0.00305575
 657.0 0.003038875
 658.0 0.003022
 659.0 0.00302514285714
 660.0 0.00302828571429
 661.0 0.00303142857143
 662.0 0.00303457142857
 663.0 0.00303771428571
 664.0 0.00304085714286
 665.0 0.003044
 666.0 0.0030388
 667.0 0.0030336
 668.0 0.0030284
 669.0 0.0030232
 670.0 0.003018
 671.0 0.0030128
 672.0 0.0030076
 673.0 0.0030024
 674.0 0.0029972
 675.0 0.002992
 676.0 0.0029724
 677.0 0.0029528
 678.0 0.0029332
 679.0 0.0029136
 680.0 0.002894
 681.0 0.0028744
 682.0 0.0028548
 683.0 0.0028352
 684.0 0.0028156
 685.0 0.002796
 686.0 0.0027983
 687.0 0.0028006
 688.0 0.0028029
 689.0 0.0028052
 690.0 0.0028075
 691.0 0.0028098
 692.0 0.0028121
 693.0 0.0028144
 694.0 0.0028167
 695.0 0.002819
 696.0 0.0027981
 697.0 0.0027772
 698.0 0.0027563
 699.0 0.0027354
 700.0 0.0027145
 701.0 0.0026936
 702.0 0.0026727
 703.0 0.0026518
 704.0 0.0026309
 705.0 0.00261
 706.0 0.00261663636364
 707.0 0.00262327272727
 708.0 0.00262990909091
 709.0 0.00263654545455
 710.0 0.00264318181818
 711.0 0.00264981818182
 712.0 0.00265645454545
 713.0 0.00266309090909
 714.0 0.00266972727273
 715.0 0.00267636363636
 716.0 0.002683
 717.0 0.0026763
 718.0 0.0026696
 719.0 0.0026629
 720.0 0.0026562
 721.0 0.0026495
 722.0 0.0026428
 723.0 0.0026361
 724.0 0.0026294
 725.0 0.0026227
 726.0 0.002616
 727.0 0.00260988888889
 728.0 0.00260377777778
 729.0 0.00259766666667
 730.0 0.00259155555556
 731.0 0.00258544444444
 732.0 0.00257933333333
 733.0 0.00257322222222
 734.0 0.00256711111111
 735.0 0.002561
 736.0 0.0025519
 737.0 0.0025428
 738.0 0.0025337
 739.0 0.0025246
 740.0 0.0025155
 741.0 0.0025064
 742.0 0.0024973
 743.0 0.0024882
 744.0 0.0024791
 745.0 0.00247
 746.0 0.002463
 747.0 0.002456
 748.0 0.002449
 749.0 0.002442
 750.0 0.002435
 751.0 0.002428
 752.0 0.002421
 753.0 0.002414
 754.0 0.002407
 755.0 0.0024
 756.0 0.0023784
 757.0 0.0023568
 758.0 0.0023352
 759.0 0.0023136
 760.0 0.002292
 761.0 0.0022704
 762.0 0.0022488
 763.0 0.0022272
 764.0 0.0022056
 765.0 0.002184
 766.0 0.0021933
 767.0 0.0022026
 768.0 0.0022119
 769.0 0.0022212
 770.0 0.0022305
 771.0 0.0022398
 772.0 0.0022491
 773.0 0.0022584
 774.0 0.0022677
 775.0 0.002277
 776.0 0.002267
 777.0 0.002257
 778.0 0.002247
 779.0 0.002237
 780.0 0.002227
 781.0 0.002217
 782.0 0.002207
 783.0 0.002197
 784.0 0.002187
 785.0 0.002177
 786.0 0.0021752
 787.0 0.0021734
 788.0 0.0021716
 789.0 0.0021698
 790.0 0.002168
 791.0 0.0021662
 792.0 0.0021644
 793.0 0.0021626
 794.0 0.0021608
 795.0 0.002159
 796.0 0.0021551
 797.0 0.0021512
 798.0 0.0021473
 799.0 0.0021434
 800.0 0.0021395
 801.0 0.0021356
 802.0 0.0021317
 803.0 0.0021278
 804.0 0.0021239
 805.0 0.00212
 806.0 0.0021155
 807.0 0.002111
 808.0 0.0021065
 809.0 0.002102
 810.0 0.0020975
 811.0 0.002093
 812.0 0.0020885
 813.0 0.002084
 814.0 0.0020795
 815.0 0.002075
 816.0 0.0020711
 817.0 0.0020672
 818.0 0.0020633
 819.0 0.0020594
 820.0 0.0020555
 821.0 0.0020516
 822.0 0.0020477
 823.0 0.0020438
 824.0 0.0020399
 825.0 0.002036
 826.0 0.0020168
 827.0 0.0019976
 828.0 0.0019784
 829.0 0.0019592
 830.0 0.00194
 831.0 0.0019208
 832.0 0.0019016
 833.0 0.0018824
 834.0 0.0018632
 835.0 0.001844
 836.0 0.0018529
 837.0 0.0018618
 838.0 0.0018707
 839.0 0.0018796
 840.0 0.0018885
 841.0 0.0018974
 842.0 0.0019063
 843.0 0.0019152
 844.0 0.0019241
 845.0 0.001933
 846.0 0.0019275
 847.0 0.001922
 848.0 0.0019165
 849.0 0.001911
 850.0 0.0019055
 851.0 0.0019
 852.0 0.0018945
 853.0 0.001889
 854.0 0.0018835
 855.0 0.001878
 856.0 0.0018756
 857.0 0.0018732
 858.0 0.0018708
 859.0 0.0018684
 860.0 0.001866
 861.0 0.0018636
 862.0 0.0018612
 863.0 0.0018588
 864.0 0.0018564
 865.0 0.001854
 866.0 0.0018503
 867.0 0.0018466
 868.0 0.0018429
 869.0 0.0018392
 870.0 0.0018355
 871.0 0.0018318
 872.0 0.0018281
 873.0 0.0018244
 874.0 0.0018207
 875.0 0.001817
 876.0 0.0018129
 877.0 0.0018088
 878.0 0.0018047
 879.0 0.0018006
 880.0 0.0017965
 881.0 0.0017924
 882.0 0.0017883
 883.0 0.0017842
 884.0 0.0017801
 885.0 0.001776
 886.0 0.0017724
 887.0 0.0017688
 888.0 0.0017652
 889.0 0.0017616
 890.0 0.001758
 891.0 0.0017544
 892.0 0.0017508
 893.0 0.0017472
 894.0 0.0017436
 895.0 0.00174
 896.0 0.0017351
 897.0 0.0017302
 898.0 0.0017253
 899.0 0.0017204
 900.0 0.0017155
 901.0 0.0017106
 902.0 0.0017057
 903.0 0.0017008
 904.0 0.0016959
 905.0 0.001691
 906.0 0.0016858
 907.0 0.0016806
 908.0 0.0016754
 909.0 0.0016702
 910.0 0.001665
 911.0 0.0016598
 912.0 0.0016546
 913.0 0.0016494
 914.0 0.0016442
 915.0 0.001639
 916.0 0.0017485
 917.0 0.001858
 918.0 0.0019675
 919.0 0.002077
 920.0 0.0021865
 921.0 0.002296
 922.0 0.0024055
 923.0 0.002515
 924.0 0.0026245
 925.0 0.002734
 926.0 0.0028493
 927.0 0.0029646
 928.0 0.0030799
 929.0 0.0031952
 930.0 0.0033105
 931.0 0.0034258
 932.0 0.0035411
 933.0 0.0036564
 934.0 0.0037717
 935.0 0.003887
 936.0 0.0040603
 937.0 0.0042336
 938.0 0.0044069
 939.0 0.0045802
 940.0 0.0047535
 941.0 0.0049268
 942.0 0.0051001
 943.0 0.0052734
 944.0 0.0054467
 945.0 0.00562
 946.0 0.006181
 947.0 0.006742
 948.0 0.007303
 949.0 0.007864
 950.0 0.008425
 951.0 0.008986
 952.0 0.009547
 953.0 0.010108
 954.0 0.010669
 955.0 0.01123
 956.0 0.011649
 957.0 0.012068
 958.0 0.012487
 959.0 0.012906
 960.0 0.013325
 961.0 0.013744
 962.0 0.014163
 963.0 0.014582
 964.0 0.015001
 965.0 0.01542
 966.0 0.0144038
 967.0 0.0133876
 968.0 0.0123714
 969.0 0.0113552
 970.0 0.010339
 971.0 0.0093228
 972.0 0.0083066
 973.0 0.0072904
 974.0 0.0062742
 975.0 0.005258
 976.0 0.0099752
 977.0 0.0146924
 978.0 0.0194096
 979.0 0.0241268
 980.0 0.028844
 981.0 0.0335612
 982.0 0.0382784
 983.0 0.0429956
 984.0 0.0477128
 985.0 0.05243
 986.0 0.056024
 987.0 0.059618
 988.0 0.063212
 989.0 0.066806
 990.0 0.0704
 991.0 0.073994
 992.0 0.077588
 993.0 0.081182
 994.0 0.084776
 995.0 0.08837
 996.0 0.090563
 997.0 0.092756
 998.0 0.094949
 999.0 0.097142
 1000.0 0.099335
 1001.0 0.101528
 1002.0 0.103721
 1003.0 0.105914
 1004.0 0.108107
 1005.0 0.1103
 1006.0 0.103484
 1007.0 0.096668
 1008.0 0.089852
 1009.0 0.083036
 1010.0 0.07622
 1011.0 0.069404
 1012.0 0.062588
 1013.0 0.055772
 1014.0 0.048956
 1015.0 0.04214
 1016.0 0.0384058
 1017.0 0.0346716
 1018.0 0.0309374
 1019.0 0.0272032
 1020.0 0.023469
 1021.0 0.0197348
 1022.0 0.0160006
 1023.0 0.0122664
 1024.0 0.0085322
 1025.0 0.004798
 1026.0 0.0067672
 1027.0 0.0087364
 1028.0 0.0107056
 1029.0 0.0126748
 1030.0 0.014644
 1031.0 0.0166132
 1032.0 0.0185824
 1033.0 0.0205516
 1034.0 0.0225208
 1035.0 0.02449
 1036.0 0.035791
 1037.0 0.047092
 1038.0 0.058393
 1039.0 0.069694
 1040.0 0.080995
 1041.0 0.092296
 1042.0 0.103597
 1043.0 0.114898
 1044.0 0.126199
 1045.0 0.1375
 1046.0 0.14733
 1047.0 0.15716
 1048.0 0.16699
 1049.0 0.17682
 1050.0 0.18665
 1051.0 0.19648
 1052.0 0.20631
 1053.0 0.21614
 1054.0 0.22597
 1055.0 0.2358
 1056.0 0.23489
 1057.0 0.23398
 1058.0 0.23307
 1059.0 0.23216
 1060.0 0.23125
 1061.0 0.23034
 1062.0 0.22943
 1063.0 0.22852
 1064.0 0.22761
 1065.0 0.2267
 1066.0 0.23149
 1067.0 0.23628
 1068.0 0.24107
 1069.0 0.24586
 1070.0 0.25065
 1071.0 0.25544
 1072.0 0.26023
 1073.0 0.26502
 1074.0 0.26981
 1075.0 0.2746
 1076.0 0.27181
 1077.0 0.26902
 1078.0 0.26623
 1079.0 0.26344
 1080.0 0.26065
 1081.0 0.25786
 1082.0 0.25507
 1083.0 0.25228
 1084.0 0.24949
 1085.0 0.2467
 1086.0 0.25005
 1087.0 0.2534
 1088.0 0.25675
 1089.0 0.2601
 1090.0 0.26345
 1091.0 0.2668
 1092.0 0.27015
 1093.0 0.2735
 1094.0 0.27685
 1095.0 0.2802
 1096.0 0.30907
 1097.0 0.33794
 1098.0 0.36681
 1099.0 0.39568
 1100.0 0.42455
 1101.0 0.45342
 1102.0 0.48229
 1103.0 0.51116
 1104.0 0.54003
 1105.0 0.5689
 1106.0 0.57877
 1107.0 0.58864
 1108.0 0.59851
 1109.0 0.60838
 1110.0 0.61825
 1111.0 0.62812
 1112.0 0.63799
 1113.0 0.64786
 1114.0 0.65773
 1115.0 0.6676
 1116.0 0.67507
 1117.0 0.68254
 1118.0 0.69001
 1119.0 0.69748
 1120.0 0.70495
 1121.0 0.71242
 1122.0 0.71989
 1123.0 0.72736
 1124.0 0.73483
 1125.0 0.7423
 1126.0 0.74559
 1127.0 0.74888
 1128.0 0.75217
 1129.0 0.75546
 1130.0 0.75875
 1131.0 0.76204
 1132.0 0.76533
 1133.0 0.76862
 1134.0 0.77191
 1135.0 0.7752
 1136.0 0.76726
 1137.0 0.75932
 1138.0 0.75138
 1139.0 0.74344
 1140.0 0.7355
 1141.0 0.72756
 1142.0 0.71962
 1143.0 0.71168
 1144.0 0.70374
 1145.0 0.6958
 1146.0 0.70037
 1147.0 0.70494
 1148.0 0.70951
 1149.0 0.71408
 1150.0 0.71865
 1151.0 0.72322
 1152.0 0.72779
 1153.0 0.73236
 1154.0 0.73693
 1155.0 0.7415
 1156.0 0.74469
 1157.0 0.74788
 1158.0 0.75107
 1159.0 0.75426
 1160.0 0.75745
 1161.0 0.76064
 1162.0 0.76383
 1163.0 0.76702
 1164.0 0.77021
 1165.0 0.7734
 1166.0 0.76075
 1167.0 0.7481
 1168.0 0.73545
 1169.0 0.7228
 1170.0 0.71015
 1171.0 0.6975
 1172.0 0.68485
 1173.0 0.6722
 1174.0 0.65955
 1175.0 0.6469
 1176.0 0.62836
 1177.0 0.60982
 1178.0 0.59128
 1179.0 0.57274
 1180.0 0.5542
 1181.0 0.53566
 1182.0 0.51712
 1183.0 0.49858
 1184.0 0.48004
 1185.0 0.4615
 1186.0 0.422045
 1187.0 0.38259
 1188.0 0.343135
 1189.0 0.30368
 1190.0 0.264225
 1191.0 0.22477
 1192.0 0.185315
 1193.0 0.14586
 1194.0 0.106405
 1195.0 0.06695
 1196.0 0.064242
 1197.0 0.061534
 1198.0 0.058826
 1199.0 0.056118
 1200.0 0.05341
 1201.0 0.050702
 1202.0 0.047994
 1203.0 0.045286
 1204.0 0.042578
 1205.0 0.03987
 1206.0 0.0364852
 1207.0 0.0331004
 1208.0 0.0297156
 1209.0 0.0263308
 1210.0 0.022946
 1211.0 0.0195612
 1212.0 0.0161764
 1213.0 0.0127916
 1214.0 0.0094068
 1215.0 0.006022
 1216.0 0.0081678
 1217.0 0.0103136
 1218.0 0.0124594
 1219.0 0.0146052
 1220.0 0.016751
 1221.0 0.0188968
 1222.0 0.0210426
 1223.0 0.0231884
 1224.0 0.0253342
 1225.0 0.02748
 1226.0 0.048622
 1227.0 0.069764
 1228.0 0.090906
 1229.0 0.112048
 1230.0 0.13319
 1231.0 0.154332
 1232.0 0.175474
 1233.0 0.196616
 1234.0 0.217758
 1235.0 0.2389
 1236.0 0.27678
 1237.0 0.31466
 1238.0 0.35254
 1239.0 0.39042
 1240.0 0.4283
 1241.0 0.46618
 1242.0 0.50406
 1243.0 0.54194
 1244.0 0.57982
 1245.0 0.6177
 1246.0 0.63751
 1247.0 0.65732
 1248.0 0.67713
 1249.0 0.69694
 1250.0 0.71675
 1251.0 0.73656
 1252.0 0.75637
 1253.0 0.77618
 1254.0 0.79599
 1255.0 0.8158
 1256.0 0.78924
 1257.0 0.76268
 1258.0 0.73612
 1259.0 0.70956
 1260.0 0.683
 1261.0 0.65644
 1262.0 0.62988
 1263.0 0.60332
 1264.0 0.57676
 1265.0 0.5502
 1266.0 0.61948
 1267.0 0.68876
 1268.0 0.75804
 1269.0 0.82732
 1270.0 0.8966
 1271.0 0.96588
 1272.0 1.03516
 1273.0 1.10444
 1274.0 1.17372
 1275.0 1.243
 1276.0 1.2721
 1277.0 1.3012
 1278.0 1.3303
 1279.0 1.3594
 1280.0 1.3885
 1281.0 1.4176
 1282.0 1.4467
 1283.0 1.4758
 1284.0 1.5049
 1285.0 1.534
 1286.0 1.5228
 1287.0 1.5116
 1288.0 1.5004
 1289.0 1.4892
 1290.0 1.478
 1291.0 1.4668
 1292.0 1.4556
 1293.0 1.4444
 1294.0 1.4332
 1295.0 1.422
 1296.0 1.3935
 1297.0 1.365
 1298.0 1.3365
 1299.0 1.308
 1300.0 1.2795
 1301.0 1.251
 1302.0 1.2225
 1303.0 1.194
 1304.0 1.1655
 1305.0 1.137
 1306.0 1.1797
 1307.0 1.2224
 1308.0 1.2651
 1309.0 1.3078
 1310.0 1.3505
 1311.0 1.3932
 1312.0 1.4359
 1313.0 1.4786
 1314.0 1.5213
 1315.0 1.564
 1316.0 1.5723
 1317.0 1.5806
 1318.0 1.5889
 1319.0 1.5972
 1320.0 1.6055
 1321.0 1.6138
 1322.0 1.6221
 1323.0 1.6304
 1324.0 1.6387
 1325.0 1.647
 1326.0 1.6324
 1327.0 1.6178
 1328.0 1.6032
 1329.0 1.5886
 1330.0 1.574
 1331.0 1.5594
 1332.0 1.5448
 1333.0 1.5302
 1334.0 1.5156
 1335.0 1.501
 1336.0 1.5338
 1337.0 1.5666
 1338.0 1.5994
 1339.0 1.6322
 1340.0 1.665
 1341.0 1.6978
 1342.0 1.7306
 1343.0 1.7634
 1344.0 1.7962
 1345.0 1.829
 1346.0 1.8182
 1347.0 1.8074
 1348.0 1.7966
 1349.0 1.7858
 1350.0 1.775
 1351.0 1.7642
 1352.0 1.7534
 1353.0 1.7426
 1354.0 1.7318
 1355.0 1.721
 1356.0 1.7019
 1357.0 1.6828
 1358.0 1.6637
 1359.0 1.6446
 1360.0 1.6255
 1361.0 1.6064
 1362.0 1.5873
 1363.0 1.5682
 1364.0 1.5491
 1365.0 1.53
 1366.0 1.5505
 1367.0 1.571
 1368.0 1.5915
 1369.0 1.612
 1370.0 1.6325
 1371.0 1.653
 1372.0 1.6735
 1373.0 1.694
 1374.0 1.7145
 1375.0 1.735
