# lambda	flux
 202.0 0.01059
 203.0 0.01057
 204.0 0.01055
 205.0 0.01053
 206.0 0.010454
 207.0 0.010378
 208.0 0.010302
 209.0 0.010226
 210.0 0.01015
 211.0 0.01017
 212.0 0.01019
 213.0 0.01021
 214.0 0.01023
 215.0 0.01025
 216.0 0.01027
 217.0 0.0102575
 218.0 0.010245
 219.0 0.0102325
 220.0 0.01022
 221.0 0.01017
 222.0 0.01012
 223.0 0.01007
 224.0 0.01007
 225.0 0.01007
 226.0 0.01007
 227.0 0.01007
 228.0 0.01069
 229.0 0.01131
 230.0 0.01193
 231.0 0.0129325
 232.0 0.013935
 233.0 0.0149375
 234.0 0.01594
 235.0 0.016225
 236.0 0.01651
 237.0 0.016795
 238.0 0.01708
 239.0 0.017365
 240.0 0.01765
 241.0 0.0174333333333
 242.0 0.0172166666667
 243.0 0.017
 244.0 0.0167833333333
 245.0 0.0165666666667
 246.0 0.01635
 247.0 0.0163733333333
 248.0 0.0163966666667
 249.0 0.01642
 250.0 0.0164433333333
 251.0 0.0164666666667
 252.0 0.01649
 253.0 0.016024
 254.0 0.015558
 255.0 0.015092
 256.0 0.014626
 257.0 0.01416
 258.0 0.01457
 259.0 0.01498
 260.0 0.01539
 261.0 0.01543
 262.0 0.01547
 263.0 0.01551
 264.0 0.01555
 265.0 0.015462
 266.0 0.015374
 267.0 0.015286
 268.0 0.015198
 269.0 0.01511
 270.0 0.015018
 271.0 0.014926
 272.0 0.014834
 273.0 0.014742
 274.0 0.01465
 275.0 0.014568
 276.0 0.014486
 277.0 0.014404
 278.0 0.014322
 279.0 0.01424
 280.0 0.014162
 281.0 0.014084
 282.0 0.014006
 283.0 0.013928
 284.0 0.01385
 285.0 0.0136833333333
 286.0 0.0135166666667
 287.0 0.01335
 288.0 0.0131833333333
 289.0 0.0130166666667
 290.0 0.01285
 291.0 0.012825
 292.0 0.0128
 293.0 0.012775
 294.0 0.01275
 295.0 0.012725
 296.0 0.0127
 297.0 0.01262
 298.0 0.01254
 299.0 0.01246
 300.0 0.01238
 301.0 0.0123
 302.0 0.0122557142857
 303.0 0.0122114285714
 304.0 0.0121671428571
 305.0 0.0121228571429
 306.0 0.0120785714286
 307.0 0.0120342857143
 308.0 0.01199
 309.0 0.011939
 310.0 0.011888
 311.0 0.011837
 312.0 0.011786
 313.0 0.011735
 314.0 0.011684
 315.0 0.011633
 316.0 0.011582
 317.0 0.011531
 318.0 0.01148
 319.0 0.011423
 320.0 0.011366
 321.0 0.011309
 322.0 0.011252
 323.0 0.011195
 324.0 0.011138
 325.0 0.011081
 326.0 0.011024
 327.0 0.010967
 328.0 0.01091
 329.0 0.010851
 330.0 0.010792
 331.0 0.010733
 332.0 0.010674
 333.0 0.010615
 334.0 0.010556
 335.0 0.010497
 336.0 0.010438
 337.0 0.010379
 338.0 0.01032
 339.0 0.0102621
 340.0 0.0102042
 341.0 0.0101463
 342.0 0.0100884
 343.0 0.0100305
 344.0 0.0099726
 345.0 0.0099147
 346.0 0.0098568
 347.0 0.0097989
 348.0 0.009741
 349.0 0.00970355555556
 350.0 0.00966611111111
 351.0 0.00962866666667
 352.0 0.00959122222222
 353.0 0.00955377777778
 354.0 0.00951633333333
 355.0 0.00947888888889
 356.0 0.00944144444444
 357.0 0.009404
 358.0 0.00939577777778
 359.0 0.00938755555556
 360.0 0.00937933333333
 361.0 0.00937111111111
 362.0 0.00936288888889
 363.0 0.00935466666667
 364.0 0.00934644444444
 365.0 0.00933822222222
 366.0 0.00933
 367.0 0.00927866666667
 368.0 0.00922733333333
 369.0 0.009176
 370.0 0.00912466666667
 371.0 0.00907333333333
 372.0 0.009022
 373.0 0.00897066666667
 374.0 0.00891933333333
 375.0 0.008868
 376.0 0.0087886
 377.0 0.0087092
 378.0 0.0086298
 379.0 0.0085504
 380.0 0.008471
 381.0 0.0083916
 382.0 0.0083122
 383.0 0.0082328
 384.0 0.0081534
 385.0 0.008074
 386.0 0.0080921
 387.0 0.0081102
 388.0 0.0081283
 389.0 0.0081464
 390.0 0.0081645
 391.0 0.0081826
 392.0 0.0082007
 393.0 0.0082188
 394.0 0.0082369
 395.0 0.008255
 396.0 0.0082565
 397.0 0.008258
 398.0 0.0082595
 399.0 0.008261
 400.0 0.0082625
 401.0 0.008264
 402.0 0.0082655
 403.0 0.008267
 404.0 0.0082685
 405.0 0.00827
 406.0 0.00822833333333
 407.0 0.00818666666667
 408.0 0.008145
 409.0 0.00810333333333
 410.0 0.00806166666667
 411.0 0.00802
 412.0 0.00797833333333
 413.0 0.00793666666667
 414.0 0.007895
 415.0 0.007832375
 416.0 0.00776975
 417.0 0.007707125
 418.0 0.0076445
 419.0 0.007581875
 420.0 0.00751925
 421.0 0.007456625
 422.0 0.007394
 423.0 0.007357
 424.0 0.00732
 425.0 0.007283
 426.0 0.007246
 427.0 0.007209
 428.0 0.007172
 429.0 0.007135
 430.0 0.007098
 431.0 0.00708918181818
 432.0 0.00708036363636
 433.0 0.00707154545455
 434.0 0.00706272727273
 435.0 0.00705390909091
 436.0 0.00704509090909
 437.0 0.00703627272727
 438.0 0.00702745454545
 439.0 0.00701863636364
 440.0 0.00700981818182
 441.0 0.007001
 442.0 0.0069711
 443.0 0.0069412
 444.0 0.0069113
 445.0 0.0068814
 446.0 0.0068515
 447.0 0.0068216
 448.0 0.0067917
 449.0 0.0067618
 450.0 0.0067319
 451.0 0.006702
 452.0 0.00664811111111
 453.0 0.00659422222222
 454.0 0.00654033333333
 455.0 0.00648644444444
 456.0 0.00643255555556
 457.0 0.00637866666667
 458.0 0.00632477777778
 459.0 0.00627088888889
 460.0 0.006217
 461.0 0.0061947
 462.0 0.0061724
 463.0 0.0061501
 464.0 0.0061278
 465.0 0.0061055
 466.0 0.0060832
 467.0 0.0060609
 468.0 0.0060386
 469.0 0.0060163
 470.0 0.005994
 471.0 0.0059926
 472.0 0.0059912
 473.0 0.0059898
 474.0 0.0059884
 475.0 0.005987
 476.0 0.0059856
 477.0 0.0059842
 478.0 0.0059828
 479.0 0.0059814
 480.0 0.00598
 481.0 0.0059229
 482.0 0.0058658
 483.0 0.0058087
 484.0 0.0057516
 485.0 0.0056945
 486.0 0.0056374
 487.0 0.0055803
 488.0 0.0055232
 489.0 0.0054661
 490.0 0.005409
 491.0 0.0054306
 492.0 0.0054522
 493.0 0.0054738
 494.0 0.0054954
 495.0 0.005517
 496.0 0.0055386
 497.0 0.0055602
 498.0 0.0055818
 499.0 0.0056034
 500.0 0.005625
 501.0 0.00553216666667
 502.0 0.00543933333333
 503.0 0.0053465
 504.0 0.00525366666667
 505.0 0.00516083333333
 506.0 0.005068
 507.0 0.00513983333333
 508.0 0.00521166666667
 509.0 0.0052835
 510.0 0.00535533333333
 511.0 0.00542716666667
 512.0 0.005499
 513.0 0.005468125
 514.0 0.00543725
 515.0 0.005406375
 516.0 0.0053755
 517.0 0.005344625
 518.0 0.00531375
 519.0 0.005282875
 520.0 0.005252
 521.0 0.0052196
 522.0 0.0051872
 523.0 0.0051548
 524.0 0.0051224
 525.0 0.00509
 526.0 0.0050576
 527.0 0.0050252
 528.0 0.0049928
 529.0 0.0049604
 530.0 0.004928
 531.0 0.0048758
 532.0 0.0048236
 533.0 0.0047714
 534.0 0.0047192
 535.0 0.004667
 536.0 0.0046148
 537.0 0.0045626
 538.0 0.0045104
 539.0 0.0044582
 540.0 0.004406
 541.0 0.0043793
 542.0 0.0043526
 543.0 0.0043259
 544.0 0.0042992
 545.0 0.0042725
 546.0 0.0042458
 547.0 0.0042191
 548.0 0.0041924
 549.0 0.0041657
 550.0 0.004139
 551.0 0.004156
 552.0 0.004173
 553.0 0.00419
 554.0 0.004207
 555.0 0.004224
 556.0 0.004241
 557.0 0.004258
 558.0 0.004275
 559.0 0.004292
 560.0 0.004309
 561.0 0.0043235
 562.0 0.004338
 563.0 0.0043525
 564.0 0.004367
 565.0 0.0043815
 566.0 0.004396
 567.0 0.0044105
 568.0 0.004425
 569.0 0.0044395
 570.0 0.004454
 571.0 0.0044353
 572.0 0.0044166
 573.0 0.0043979
 574.0 0.0043792
 575.0 0.0043605
 576.0 0.0043418
 577.0 0.0043231
 578.0 0.0043044
 579.0 0.0042857
 580.0 0.004267
 581.0 0.0042545
 582.0 0.004242
 583.0 0.0042295
 584.0 0.004217
 585.0 0.0042045
 586.0 0.004192
 587.0 0.0041795
 588.0 0.004167
 589.0 0.0041545
 590.0 0.004142
 591.0 0.0040959
 592.0 0.0040498
 593.0 0.0040037
 594.0 0.0039576
 595.0 0.0039115
 596.0 0.0038654
 597.0 0.0038193
 598.0 0.0037732
 599.0 0.0037271
 600.0 0.003681
 601.0 0.0036316
 602.0 0.0035822
 603.0 0.0035328
 604.0 0.0034834
 605.0 0.003434
 606.0 0.0033846
 607.0 0.0033352
 608.0 0.0032858
 609.0 0.0032364
 610.0 0.003187
 611.0 0.0032347
 612.0 0.0032824
 613.0 0.0033301
 614.0 0.0033778
 615.0 0.0034255
 616.0 0.0034732
 617.0 0.0035209
 618.0 0.0035686
 619.0 0.0036163
 620.0 0.003664
 621.0 0.0036386
 622.0 0.0036132
 623.0 0.0035878
 624.0 0.0035624
 625.0 0.003537
 626.0 0.0035116
 627.0 0.0034862
 628.0 0.0034608
 629.0 0.0034354
 630.0 0.00341
 631.0 0.0034213
 632.0 0.0034326
 633.0 0.0034439
 634.0 0.0034552
 635.0 0.0034665
 636.0 0.0034778
 637.0 0.0034891
 638.0 0.0035004
 639.0 0.0035117
 640.0 0.003523
 641.0 0.003503
 642.0 0.003483
 643.0 0.003463
 644.0 0.003443
 645.0 0.003423
 646.0 0.003403
 647.0 0.003383
 648.0 0.003363
 649.0 0.003343
 650.0 0.003323
 651.0 0.00329475
 652.0 0.0032665
 653.0 0.00323825
 654.0 0.00321
 655.0 0.00318175
 656.0 0.0031535
 657.0 0.00312525
 658.0 0.003097
 659.0 0.003117
 660.0 0.003137
 661.0 0.003157
 662.0 0.003177
 663.0 0.003197
 664.0 0.003217
 665.0 0.003237
 666.0 0.0032335
 667.0 0.00323
 668.0 0.0032265
 669.0 0.003223
 670.0 0.0032195
 671.0 0.003216
 672.0 0.0032125
 673.0 0.003209
 674.0 0.0032055
 675.0 0.003202
 676.0 0.0031696
 677.0 0.0031372
 678.0 0.0031048
 679.0 0.0030724
 680.0 0.00304
 681.0 0.0030076
 682.0 0.0029752
 683.0 0.0029428
 684.0 0.0029104
 685.0 0.002878
 686.0 0.002888
 687.0 0.002898
 688.0 0.002908
 689.0 0.002918
 690.0 0.002928
 691.0 0.002938
 692.0 0.002948
 693.0 0.002958
 694.0 0.002968
 695.0 0.002978
 696.0 0.0029397
 697.0 0.0029014
 698.0 0.0028631
 699.0 0.0028248
 700.0 0.0027865
 701.0 0.0027482
 702.0 0.0027099
 703.0 0.0026716
 704.0 0.0026333
 705.0 0.002595
 706.0 0.00261409090909
 707.0 0.00263318181818
 708.0 0.00265227272727
 709.0 0.00267136363636
 710.0 0.00269045454545
 711.0 0.00270954545455
 712.0 0.00272863636364
 713.0 0.00274772727273
 714.0 0.00276681818182
 715.0 0.00278590909091
 716.0 0.002805
 717.0 0.0027999
 718.0 0.0027948
 719.0 0.0027897
 720.0 0.0027846
 721.0 0.0027795
 722.0 0.0027744
 723.0 0.0027693
 724.0 0.0027642
 725.0 0.0027591
 726.0 0.002754
 727.0 0.00274611111111
 728.0 0.00273822222222
 729.0 0.00273033333333
 730.0 0.00272244444444
 731.0 0.00271455555556
 732.0 0.00270666666667
 733.0 0.00269877777778
 734.0 0.00269088888889
 735.0 0.002683
 736.0 0.0026687
 737.0 0.0026544
 738.0 0.0026401
 739.0 0.0026258
 740.0 0.0026115
 741.0 0.0025972
 742.0 0.0025829
 743.0 0.0025686
 744.0 0.0025543
 745.0 0.00254
 746.0 0.002531
 747.0 0.002522
 748.0 0.002513
 749.0 0.002504
 750.0 0.002495
 751.0 0.002486
 752.0 0.002477
 753.0 0.002468
 754.0 0.002459
 755.0 0.00245
 756.0 0.0024157
 757.0 0.0023814
 758.0 0.0023471
 759.0 0.0023128
 760.0 0.0022785
 761.0 0.0022442
 762.0 0.0022099
 763.0 0.0021756
 764.0 0.0021413
 765.0 0.002107
 766.0 0.0021262
 767.0 0.0021454
 768.0 0.0021646
 769.0 0.0021838
 770.0 0.002203
 771.0 0.0022222
 772.0 0.0022414
 773.0 0.0022606
 774.0 0.0022798
 775.0 0.002299
 776.0 0.0022724
 777.0 0.0022458
 778.0 0.0022192
 779.0 0.0021926
 780.0 0.002166
 781.0 0.0021394
 782.0 0.0021128
 783.0 0.0020862
 784.0 0.0020596
 785.0 0.002033
 786.0 0.0020406
 787.0 0.0020482
 788.0 0.0020558
 789.0 0.0020634
 790.0 0.002071
 791.0 0.0020786
 792.0 0.0020862
 793.0 0.0020938
 794.0 0.0021014
 795.0 0.002109
 796.0 0.0021114
 797.0 0.0021138
 798.0 0.0021162
 799.0 0.0021186
 800.0 0.002121
 801.0 0.0021234
 802.0 0.0021258
 803.0 0.0021282
 804.0 0.0021306
 805.0 0.002133
 806.0 0.0021276
 807.0 0.0021222
 808.0 0.0021168
 809.0 0.0021114
 810.0 0.002106
 811.0 0.0021006
 812.0 0.0020952
 813.0 0.0020898
 814.0 0.0020844
 815.0 0.002079
 816.0 0.0020741
 817.0 0.0020692
 818.0 0.0020643
 819.0 0.0020594
 820.0 0.0020545
 821.0 0.0020496
 822.0 0.0020447
 823.0 0.0020398
 824.0 0.0020349
 825.0 0.00203
 826.0 0.0020015
 827.0 0.001973
 828.0 0.0019445
 829.0 0.001916
 830.0 0.0018875
 831.0 0.001859
 832.0 0.0018305
 833.0 0.001802
 834.0 0.0017735
 835.0 0.001745
 836.0 0.0017611
 837.0 0.0017772
 838.0 0.0017933
 839.0 0.0018094
 840.0 0.0018255
 841.0 0.0018416
 842.0 0.0018577
 843.0 0.0018738
 844.0 0.0018899
 845.0 0.001906
 846.0 0.0018976
 847.0 0.0018892
 848.0 0.0018808
 849.0 0.0018724
 850.0 0.001864
 851.0 0.0018556
 852.0 0.0018472
 853.0 0.0018388
 854.0 0.0018304
 855.0 0.001822
 856.0 0.0018222
 857.0 0.0018224
 858.0 0.0018226
 859.0 0.0018228
 860.0 0.001823
 861.0 0.0018232
 862.0 0.0018234
 863.0 0.0018236
 864.0 0.0018238
 865.0 0.001824
 866.0 0.0018202
 867.0 0.0018164
 868.0 0.0018126
 869.0 0.0018088
 870.0 0.001805
 871.0 0.0018012
 872.0 0.0017974
 873.0 0.0017936
 874.0 0.0017898
 875.0 0.001786
 876.0 0.0017808
 877.0 0.0017756
 878.0 0.0017704
 879.0 0.0017652
 880.0 0.00176
 881.0 0.0017548
 882.0 0.0017496
 883.0 0.0017444
 884.0 0.0017392
 885.0 0.001734
 886.0 0.0017296
 887.0 0.0017252
 888.0 0.0017208
 889.0 0.0017164
 890.0 0.001712
 891.0 0.0017076
 892.0 0.0017032
 893.0 0.0016988
 894.0 0.0016944
 895.0 0.00169
 896.0 0.0016838
 897.0 0.0016776
 898.0 0.0016714
 899.0 0.0016652
 900.0 0.001659
 901.0 0.0016528
 902.0 0.0016466
 903.0 0.0016404
 904.0 0.0016342
 905.0 0.001628
 906.0 0.0016627
 907.0 0.0016974
 908.0 0.0017321
 909.0 0.0017668
 910.0 0.0018015
 911.0 0.0018362
 912.0 0.0018709
 913.0 0.0019056
 914.0 0.0019403
 915.0 0.001975
 916.0 0.0022403
 917.0 0.0025056
 918.0 0.0027709
 919.0 0.0030362
 920.0 0.0033015
 921.0 0.0035668
 922.0 0.0038321
 923.0 0.0040974
 924.0 0.0043627
 925.0 0.004628
 926.0 0.0048288
 927.0 0.0050296
 928.0 0.0052304
 929.0 0.0054312
 930.0 0.005632
 931.0 0.0058328
 932.0 0.0060336
 933.0 0.0062344
 934.0 0.0064352
 935.0 0.006636
 936.0 0.0075454
 937.0 0.0084548
 938.0 0.0093642
 939.0 0.0102736
 940.0 0.011183
 941.0 0.0120924
 942.0 0.0130018
 943.0 0.0139112
 944.0 0.0148206
 945.0 0.01573
 946.0 0.019605
 947.0 0.02348
 948.0 0.027355
 949.0 0.03123
 950.0 0.035105
 951.0 0.03898
 952.0 0.042855
 953.0 0.04673
 954.0 0.050605
 955.0 0.05448
 956.0 0.056374
 957.0 0.058268
 958.0 0.060162
 959.0 0.062056
 960.0 0.06395
 961.0 0.065844
 962.0 0.067738
 963.0 0.069632
 964.0 0.071526
 965.0 0.07342
 966.0 0.068262
 967.0 0.063104
 968.0 0.057946
 969.0 0.052788
 970.0 0.04763
 971.0 0.042472
 972.0 0.037314
 973.0 0.032156
 974.0 0.026998
 975.0 0.02184
 976.0 0.031136
 977.0 0.040432
 978.0 0.049728
 979.0 0.059024
 980.0 0.06832
 981.0 0.077616
 982.0 0.086912
 983.0 0.096208
 984.0 0.105504
 985.0 0.1148
 986.0 0.11332
 987.0 0.11184
 988.0 0.11036
 989.0 0.10888
 990.0 0.1074
 991.0 0.10592
 992.0 0.10444
 993.0 0.10296
 994.0 0.10148
 995.0 0.1
 996.0 0.10782
 997.0 0.11564
 998.0 0.12346
 999.0 0.13128
 1000.0 0.1391
 1001.0 0.14692
 1002.0 0.15474
 1003.0 0.16256
 1004.0 0.17038
 1005.0 0.1782
 1006.0 0.17733
 1007.0 0.17646
 1008.0 0.17559
 1009.0 0.17472
 1010.0 0.17385
 1011.0 0.17298
 1012.0 0.17211
 1013.0 0.17124
 1014.0 0.17037
 1015.0 0.1695
 1016.0 0.154961
 1017.0 0.140422
 1018.0 0.125883
 1019.0 0.111344
 1020.0 0.096805
 1021.0 0.082266
 1022.0 0.067727
 1023.0 0.053188
 1024.0 0.038649
 1025.0 0.02411
 1026.0 0.028132
 1027.0 0.032154
 1028.0 0.036176
 1029.0 0.040198
 1030.0 0.04422
 1031.0 0.048242
 1032.0 0.052264
 1033.0 0.056286
 1034.0 0.060308
 1035.0 0.06433
 1036.0 0.084407
 1037.0 0.104484
 1038.0 0.124561
 1039.0 0.144638
 1040.0 0.164715
 1041.0 0.184792
 1042.0 0.204869
 1043.0 0.224946
 1044.0 0.245023
 1045.0 0.2651
 1046.0 0.27182
 1047.0 0.27854
 1048.0 0.28526
 1049.0 0.29198
 1050.0 0.2987
 1051.0 0.30542
 1052.0 0.31214
 1053.0 0.31886
 1054.0 0.32558
 1055.0 0.3323
 1056.0 0.32474
 1057.0 0.31718
 1058.0 0.30962
 1059.0 0.30206
 1060.0 0.2945
 1061.0 0.28694
 1062.0 0.27938
 1063.0 0.27182
 1064.0 0.26426
 1065.0 0.2567
 1066.0 0.26488
 1067.0 0.27306
 1068.0 0.28124
 1069.0 0.28942
 1070.0 0.2976
 1071.0 0.30578
 1072.0 0.31396
 1073.0 0.32214
 1074.0 0.33032
 1075.0 0.3385
 1076.0 0.3269
 1077.0 0.3153
 1078.0 0.3037
 1079.0 0.2921
 1080.0 0.2805
 1081.0 0.2689
 1082.0 0.2573
 1083.0 0.2457
 1084.0 0.2341
 1085.0 0.2225
 1086.0 0.23538
 1087.0 0.24826
 1088.0 0.26114
 1089.0 0.27402
 1090.0 0.2869
 1091.0 0.29978
 1092.0 0.31266
 1093.0 0.32554
 1094.0 0.33842
 1095.0 0.3513
 1096.0 0.39586
 1097.0 0.44042
 1098.0 0.48498
 1099.0 0.52954
 1100.0 0.5741
 1101.0 0.61866
 1102.0 0.66322
 1103.0 0.70778
 1104.0 0.75234
 1105.0 0.7969
 1106.0 0.81271
 1107.0 0.82852
 1108.0 0.84433
 1109.0 0.86014
 1110.0 0.87595
 1111.0 0.89176
 1112.0 0.90757
 1113.0 0.92338
 1114.0 0.93919
 1115.0 0.955
 1116.0 0.9611
 1117.0 0.9672
 1118.0 0.9733
 1119.0 0.9794
 1120.0 0.9855
 1121.0 0.9916
 1122.0 0.9977
 1123.0 1.0038
 1124.0 1.0099
 1125.0 1.016
 1126.0 1.0423
 1127.0 1.0686
 1128.0 1.0949
 1129.0 1.1212
 1130.0 1.1475
 1131.0 1.1738
 1132.0 1.2001
 1133.0 1.2264
 1134.0 1.2527
 1135.0 1.279
 1136.0 1.2618
 1137.0 1.2446
 1138.0 1.2274
 1139.0 1.2102
 1140.0 1.193
 1141.0 1.1758
 1142.0 1.1586
 1143.0 1.1414
 1144.0 1.1242
 1145.0 1.107
 1146.0 1.1363
 1147.0 1.1656
 1148.0 1.1949
 1149.0 1.2242
 1150.0 1.2535
 1151.0 1.2828
 1152.0 1.3121
 1153.0 1.3414
 1154.0 1.3707
 1155.0 1.4
 1156.0 1.4185
 1157.0 1.437
 1158.0 1.4555
 1159.0 1.474
 1160.0 1.4925
 1161.0 1.511
 1162.0 1.5295
 1163.0 1.548
 1164.0 1.5665
 1165.0 1.585
 1166.0 1.5582
 1167.0 1.5314
 1168.0 1.5046
 1169.0 1.4778
 1170.0 1.451
 1171.0 1.4242
 1172.0 1.3974
 1173.0 1.3706
 1174.0 1.3438
 1175.0 1.317
 1176.0 1.3107
 1177.0 1.3044
 1178.0 1.2981
 1179.0 1.2918
 1180.0 1.2855
 1181.0 1.2792
 1182.0 1.2729
 1183.0 1.2666
 1184.0 1.2603
 1185.0 1.254
 1186.0 1.14322
 1187.0 1.03244
 1188.0 0.92166
 1189.0 0.81088
 1190.0 0.7001
 1191.0 0.58932
 1192.0 0.47854
 1193.0 0.36776
 1194.0 0.25698
 1195.0 0.1462
 1196.0 0.15931
 1197.0 0.17242
 1198.0 0.18553
 1199.0 0.19864
 1200.0 0.21175
 1201.0 0.22486
 1202.0 0.23797
 1203.0 0.25108
 1204.0 0.26419
 1205.0 0.2773
 1206.0 0.254276
 1207.0 0.231252
 1208.0 0.208228
 1209.0 0.185204
 1210.0 0.16218
 1211.0 0.139156
 1212.0 0.116132
 1213.0 0.093108
 1214.0 0.070084
 1215.0 0.04706
 1216.0 0.070294
 1217.0 0.093528
 1218.0 0.116762
 1219.0 0.139996
 1220.0 0.16323
 1221.0 0.186464
 1222.0 0.209698
 1223.0 0.232932
 1224.0 0.256166
 1225.0 0.2794
 1226.0 0.40086
 1227.0 0.52232
 1228.0 0.64378
 1229.0 0.76524
 1230.0 0.8867
 1231.0 1.00816
 1232.0 1.12962
 1233.0 1.25108
 1234.0 1.37254
 1235.0 1.494
 1236.0 1.5768
 1237.0 1.6596
 1238.0 1.7424
 1239.0 1.8252
 1240.0 1.908
 1241.0 1.9908
 1242.0 2.0736
 1243.0 2.1564
 1244.0 2.2392
 1245.0 2.322
 1246.0 2.2983
 1247.0 2.2746
 1248.0 2.2509
 1249.0 2.2272
 1250.0 2.2035
 1251.0 2.1798
 1252.0 2.1561
 1253.0 2.1324
 1254.0 2.1087
 1255.0 2.085
 1256.0 1.9812
 1257.0 1.8774
 1258.0 1.7736
 1259.0 1.6698
 1260.0 1.566
 1261.0 1.4622
 1262.0 1.3584
 1263.0 1.2546
 1264.0 1.1508
 1265.0 1.047
 1266.0 1.248
 1267.0 1.449
 1268.0 1.65
 1269.0 1.851
 1270.0 2.052
 1271.0 2.253
 1272.0 2.454
 1273.0 2.655
 1274.0 2.856
 1275.0 3.057
 1276.0 3.1167
 1277.0 3.1764
 1278.0 3.2361
 1279.0 3.2958
 1280.0 3.3555
 1281.0 3.4152
 1282.0 3.4749
 1283.0 3.5346
 1284.0 3.5943
 1285.0 3.654
 1286.0 3.556
 1287.0 3.458
 1288.0 3.36
 1289.0 3.262
 1290.0 3.164
 1291.0 3.066
 1292.0 2.968
 1293.0 2.87
 1294.0 2.772
 1295.0 2.674
 1296.0 2.6052
 1297.0 2.5364
 1298.0 2.4676
 1299.0 2.3988
 1300.0 2.33
 1301.0 2.2612
 1302.0 2.1924
 1303.0 2.1236
 1304.0 2.0548
 1305.0 1.986
 1306.0 2.1177
 1307.0 2.2494
 1308.0 2.3811
 1309.0 2.5128
 1310.0 2.6445
 1311.0 2.7762
 1312.0 2.9079
 1313.0 3.0396
 1314.0 3.1713
 1315.0 3.303
 1316.0 3.3189
 1317.0 3.3348
 1318.0 3.3507
 1319.0 3.3666
 1320.0 3.3825
 1321.0 3.3984
 1322.0 3.4143
 1323.0 3.4302
 1324.0 3.4461
 1325.0 3.462
 1326.0 3.3668
 1327.0 3.2716
 1328.0 3.1764
 1329.0 3.0812
 1330.0 2.986
 1331.0 2.8908
 1332.0 2.7956
 1333.0 2.7004
 1334.0 2.6052
 1335.0 2.51
 1336.0 2.6492
 1337.0 2.7884
 1338.0 2.9276
 1339.0 3.0668
 1340.0 3.206
 1341.0 3.3452
 1342.0 3.4844
 1343.0 3.6236
 1344.0 3.7628
 1345.0 3.902
 1346.0 3.888
 1347.0 3.874
 1348.0 3.86
 1349.0 3.846
 1350.0 3.832
 1351.0 3.818
 1352.0 3.804
 1353.0 3.79
 1354.0 3.776
 1355.0 3.762
 1356.0 3.6969
 1357.0 3.6318
 1358.0 3.5667
 1359.0 3.5016
 1360.0 3.4365
 1361.0 3.3714
 1362.0 3.3063
 1363.0 3.2412
 1364.0 3.1761
 1365.0 3.111
 1366.0 3.1747
 1367.0 3.2384
 1368.0 3.3021
 1369.0 3.3658
 1370.0 3.4295
 1371.0 3.4932
 1372.0 3.5569
 1373.0 3.6206
 1374.0 3.6843
 1375.0 3.748
 1376.0 3.7557
 1377.0 3.7634
 1378.0 3.7711
 1379.0 3.7788
 1380.0 3.7865
 1381.0 3.7942
 1382.0 3.8019
 1383.0 3.8096
 1384.0 3.8173
 1385.0 3.825
 1386.0 3.8307
 1387.0 3.8364
 1388.0 3.8421
 1389.0 3.8478
 1390.0 3.8535
 1391.0 3.8592
 1392.0 3.8649
 1393.0 3.8706
 1394.0 3.8763
 1395.0 3.882
 1396.0 3.8736
 1397.0 3.8652
 1398.0 3.8568
 1399.0 3.8484
 1400.0 3.84
 1401.0 3.8316
 1402.0 3.8232
 1403.0 3.8148
 1404.0 3.8064
 1405.0 3.798
 1406.0 3.7623
