#lambda	flux
100	30.9544
100.5	30.7464
101	30.5407
101.5	30.3375
102	30.1365
102.5	29.9379
103	29.7416
103.5	29.5475
104	29.3555
104.5	29.1658
105	28.9781
105.5	28.7926
106	28.6091
106.5	28.4276
107	28.2481
107.5	28.0706
108	27.895
108.5	27.7213
109	27.5495
109.5	27.3795
110	27.2114
110.5	27.045
111	26.8804
111.5	26.7175
112	26.5564
112.5	26.3969
113	26.2391
113.5	26.0829
114	25.9283
114.5	25.7753
115	25.6239
115.5	25.474
116	25.3257
116.5	25.1788
117	25.0334
117.5	24.8895
118	24.747
118.5	24.6059
119	24.4662
119.5	24.3279
120	24.1909
120.5	24.0553
121	23.9209
121.5	23.7879
122	23.6562
122.5	23.5257
123	23.3965
123.5	23.2685
124	23.1417
124.5	23.0161
125	22.8917
125.5	22.7685
126	22.6464
126.5	22.5254
127	22.4056
127.5	22.2869
128	22.1692
128.5	22.0527
129	21.9372
129.5	21.8227
130	21.7093
130.5	21.5969
131	21.4855
131.5	21.3751
132	21.2657
132.5	21.1573
133	21.0498
133.5	20.9432
134	20.8376
134.5	20.733
135	20.6292
135.5	20.5263
136	20.4243
136.5	20.3232
137	20.223
137.5	20.1236
138	20.0251
138.5	19.9274
139	19.8305
139.5	19.7345
140	19.6392
140.5	19.5448
141	19.4511
141.5	19.3582
142	19.2661
142.5	19.1748
143	19.0842
143.5	18.9943
144	18.9052
144.5	18.8168
145	18.7291
145.5	18.6421
146	18.5558
146.5	18.4703
147	18.3854
147.5	18.3011
148	18.2176
148.5	18.1347
149	18.0524
149.5	17.9708
150	17.8899
150.5	17.8096
151	17.7299
151.5	17.6508
152	17.5723
152.5	17.4945
153	17.4172
153.5	17.3405
154	17.2644
154.5	17.1889
155	17.114
155.5	17.0396
156	16.9658
156.5	16.8926
157	16.8199
157.5	16.7477
158	16.6761
158.5	16.605
159	16.5344
159.5	16.4644
160	16.3948
160.5	16.3258
161	16.2573
161.5	16.1892
162	16.1217
162.5	16.0547
163	15.9881
163.5	15.922
164	15.8564
164.5	15.7913
165	15.7266
165.5	15.6624
166	15.5987
166.5	15.5353
167	15.4725
167.5	15.4101
168	15.3481
168.5	15.2865
169	15.2254
169.5	15.1647
170	15.1044
170.5	15.0445
171	14.9851
171.5	14.926
172	14.8674
172.5	14.8092
173	14.7513
173.5	14.6939
174	14.6368
174.5	14.5801
175	14.5238
175.5	14.4679
176	14.4123
176.5	14.3572
177	14.3023
177.5	14.2479
178	14.1938
178.5	14.1401
179	14.0867
179.5	14.0336
180	13.981
180.5	13.9286
181	13.8766
181.5	13.8249
182	13.7736
182.5	13.7226
183	13.6719
183.5	13.6216
184	13.5715
184.5	13.5218
185	13.4724
185.5	13.4234
186	13.3746
186.5	13.3261
187	13.278
187.5	13.2301
188	13.1826
188.5	13.1353
189	13.0883
189.5	13.0417
190	12.9953
190.5	12.9492
191	12.9033
191.5	12.8578
192	12.8126
192.5	12.7676
193	12.7229
193.5	12.6784
194	12.6343
194.5	12.5904
195	12.5467
195.5	12.5034
196	12.4602
196.5	12.4174
197	12.3748
197.5	12.3325
198	12.2904
198.5	12.2485
199	12.2069
199.5	12.1656
200	12.1245
200.5	12.0836
201	12.043
201.5	12.0026
202	11.9624
202.5	11.9225
203	11.8828
203.5	11.8433
204	11.8041
204.5	11.7651
205	11.7263
205.5	11.6877
206	11.6494
206.5	11.6113
207	11.5734
207.5	11.5357
208	11.4982
208.5	11.4609
209	11.4239
209.5	11.387
210	11.3504
210.5	11.3139
211	11.2777
211.5	11.2416
212	11.2058
212.5	11.1702
213	11.1347
213.5	11.0995
214	11.0644
214.5	11.0296
215	10.9949
215.5	10.9604
216	10.9261
216.5	10.892
217	10.8581
217.5	10.8243
218	10.7908
218.5	10.7574
219	10.7242
219.5	10.6912
220	10.6584
220.5	10.6257
221	10.5932
221.5	10.5609
222	10.5287
222.5	10.4967
223	10.4649
223.5	10.4333
224	10.4018
224.5	10.3705
225	10.3393
225.5	10.3083
226	10.2775
226.5	10.2469
227	10.2163
227.5	10.186
228	10.1558
228.5	10.1258
229	10.0959
229.5	10.0661
230	10.0366
230.5	10.0071
231	9.97786
231.5	9.94873
232	9.91975
232.5	9.89091
233	9.86222
233.5	9.83368
234	9.80527
234.5	9.77701
235	9.7489
235.5	9.72092
236	9.69308
236.5	9.66538
237	9.63781
237.5	9.61039
238	9.5831
238.5	9.55594
239	9.52892
239.5	9.50203
240	9.47527
240.5	9.44864
241	9.42214
241.5	9.39577
242	9.36953
242.5	9.34342
243	9.31743
243.5	9.29157
244	9.26583
244.5	9.24022
245	9.21473
245.5	9.18936
246	9.16411
246.5	9.13899
247	9.11398
247.5	9.08909
248	9.06432
248.5	9.03967
249	9.01513
249.5	8.99071
250	8.9664
250.5	8.94221
251	8.91813
251.5	8.89416
252	8.87031
252.5	8.84657
253	8.82293
253.5	8.79941
254	8.77599
254.5	8.75269
255	8.72949
255.5	8.7064
256	8.68341
256.5	8.66053
257	8.63775
257.5	8.61508
258	8.59251
258.5	8.57005
259	8.54768
259.5	8.52542
260	8.50326
260.5	8.48119
261	8.45923
261.5	8.43737
262	8.4156
262.5	8.39393
263	8.37236
263.5	8.35089
264	8.32951
264.5	8.30822
265	8.28703
265.5	8.26593
266	8.24493
266.5	8.22402
267	8.2032
267.5	8.18248
268	8.16184
268.5	8.14129
269	8.12084
269.5	8.10047
270	8.08019
270.5	8.06
271	8.0399
271.5	8.01989
272	7.99996
272.5	7.98011
273	7.96036
273.5	7.94069
274	7.9211
274.5	7.90159
275	7.88217
275.5	7.86284
276	7.84358
276.5	7.82441
277	7.80531
277.5	7.7863
278	7.76737
278.5	7.74852
279	7.72975
279.5	7.71106
280	7.69244
280.5	7.67391
281	7.65545
281.5	7.63707
282	7.61876
282.5	7.60054
283	7.58238
283.5	7.56431
284	7.5463
284.5	7.52837
285	7.51052
285.5	7.49274
286	7.47503
286.5	7.4574
287	7.43983
287.5	7.42234
288	7.40492
288.5	7.38758
289	7.3703
289.5	7.35309
290	7.33595
290.5	7.31888
291	7.30188
291.5	7.28495
292	7.26809
292.5	7.25129
293	7.23457
293.5	7.21791
294	7.20131
294.5	7.18478
295	7.16832
295.5	7.15193
296	7.13559
296.5	7.11933
297	7.10313
297.5	7.08699
298	7.07091
298.5	7.0549
299	7.03895
299.5	7.02307
300	7.00725
300.5	6.99148
301	6.97578
301.5	6.96015
302	6.94457
302.5	6.92905
303	6.91359
303.5	6.8982
304	6.88286
304.5	6.86758
305	6.85236
305.5	6.8372
306	6.8221
306.5	6.80705
307	6.79207
307.5	6.77714
308	6.76226
308.5	6.74745
309	6.73269
309.5	6.71798
310	6.70334
310.5	6.68874
311	6.67421
311.5	6.65972
312	6.6453
312.5	6.63092
313	6.6166
313.5	6.60234
314	6.58813
314.5	6.57397
315	6.55986
315.5	6.54581
316	6.53181
316.5	6.51786
317	6.50396
317.5	6.49011
318	6.47632
318.5	6.46257
319	6.44888
319.5	6.43524
320	6.42164
320.5	6.4081
321	6.39461
321.5	6.38116
322	6.36777
322.5	6.35442
323	6.34112
323.5	6.32787
324	6.31467
324.5	6.30152
325	6.28841
325.5	6.27536
326	6.26234
326.5	6.24938
327	6.23646
327.5	6.22359
328	6.21076
328.5	6.19799
329	6.18525
329.5	6.17256
330	6.15992
330.5	6.14732
331	6.13477
331.5	6.12226
332	6.1098
332.5	6.09737
333	6.085
333.5	6.07267
334	6.06038
334.5	6.04813
335	6.03593
335.5	6.02377
336	6.01165
336.5	5.99957
337	5.98754
337.5	5.97555
338	5.9636
338.5	5.95169
339	5.93982
339.5	5.92799
340	5.91621
340.5	5.90446
341	5.89276
341.5	5.8811
342	5.86947
342.5	5.85789
343	5.84635
343.5	5.83484
344	5.82338
344.5	5.81195
345	5.80056
345.5	5.78921
346	5.77791
346.5	5.76663
347	5.7554
347.5	5.74421
348	5.73305
348.5	5.72193
349	5.71085
349.5	5.6998
350	5.68879
350.5	5.67782
351	5.66689
351.5	5.65599
352	5.64513
352.5	5.6343
353	5.62352
353.5	5.61276
354	5.60205
354.5	5.59136
355	5.58072
355.5	5.57011
356	5.55953
356.5	5.54899
357	5.53848
357.5	5.52801
358	5.51757
358.5	5.50717
359	5.4968
359.5	5.48647
360	5.47616
360.5	5.4659
361	5.45566
361.5	5.44546
362	5.43529
362.5	5.42516
363	5.41505
363.5	5.40499
364	5.39495
364.5	5.38494
365	5.37497
365.5	5.36503
366	5.35512
366.5	5.34525
367	5.3354
367.5	5.32559
368	5.3158
368.5	5.30605
369	5.29633
369.5	5.28664
370	5.27699
370.5	5.26736
371	5.25776
371.5	5.2482
372	5.23866
372.5	5.22915
373	5.21968
373.5	5.21023
374	5.20081
374.5	5.19143
375	5.18207
375.5	5.17274
376	5.16344
376.5	5.15417
377	5.14493
377.5	5.13572
378	5.12653
378.5	5.11738
379	5.10825
379.5	5.09915
380	5.09008
380.5	5.08104
381	5.07202
381.5	5.06304
382	5.05408
382.5	5.04515
383	5.03624
383.5	5.02737
384	5.01852
384.5	5.00969
385	5.0009
385.5	4.99213
386	4.98339
386.5	4.97467
387	4.96598
387.5	4.95732
388	4.94868
388.5	4.94007
389	4.93149
389.5	4.92293
390	4.9144
390.5	4.90589
391	4.89741
391.5	4.88895
392	4.88052
392.5	4.87212
393	4.86374
393.5	4.85538
394	4.84705
394.5	4.83875
395	4.83047
395.5	4.82221
396	4.81398
396.5	4.80577
397	4.79759
397.5	4.78943
398	4.7813
398.5	4.77319
399	4.7651
399.5	4.75704
400	4.749
400.5	4.74098
401	4.73299
401.5	4.72502
402	4.71708
402.5	4.70916
403	4.70126
403.5	4.69338
404	4.68553
404.5	4.6777
405	4.66989
405.5	4.66211
406	4.65434
406.5	4.6466
407	4.63889
407.5	4.63119
408	4.62352
408.5	4.61587
409	4.60824
409.5	4.60063
410	4.59305
410.5	4.58548
411	4.57794
411.5	4.57042
412	4.56292
412.5	4.55545
413	4.54799
413.5	4.54056
414	4.53314
414.5	4.52575
415	4.51838
415.5	4.51103
416	4.5037
416.5	4.49639
417	4.4891
417.5	4.48183
418	4.47458
418.5	4.46735
419	4.46015
419.5	4.45296
420	4.44579
420.5	4.43865
421	4.43152
421.5	4.42441
422	4.41733
422.5	4.41026
423	4.40321
423.5	4.39618
424	4.38917
424.5	4.38218
425	4.37521
425.5	4.36826
426	4.36133
426.5	4.35442
427	4.34753
427.5	4.34065
428	4.3338
428.5	4.32696
429	4.32014
429.5	4.31334
430	4.30656
430.5	4.2998
431	4.29306
431.5	4.28633
432	4.27962
432.5	4.27293
433	4.26626
433.5	4.25961
434	4.25298
434.5	4.24636
435	4.23976
435.5	4.23318
436	4.22662
436.5	4.22007
437	4.21354
437.5	4.20703
438	4.20054
438.5	4.19407
439	4.18761
439.5	4.18117
440	4.17474
440.5	4.16834
441	4.16195
441.5	4.15558
442	4.14922
442.5	4.14288
443	4.13656
443.5	4.13025
444	4.12397
444.5	4.11769
445	4.11144
445.5	4.1052
446	4.09898
446.5	4.09277
447	4.08658
447.5	4.08041
448	4.07425
448.5	4.06811
449	4.06199
449.5	4.05588
450	4.04979
450.5	4.04371
451	4.03765
451.5	4.03161
452	4.02558
452.5	4.01956
453	4.01356
453.5	4.00758
454	4.00161
454.5	3.99566
455	3.98973
455.5	3.98381
456	3.9779
456.5	3.97201
457	3.96613
457.5	3.96027
458	3.95443
458.5	3.9486
459	3.94278
459.5	3.93698
460	3.9312
460.5	3.92543
461	3.91967
461.5	3.91393
462	3.9082
462.5	3.90249
463	3.89679
463.5	3.89111
464	3.88544
464.5	3.87979
465	3.87415
465.5	3.86852
466	3.86291
466.5	3.85731
467	3.85173
467.5	3.84616
468	3.8406
468.5	3.83506
469	3.82953
469.5	3.82402
470	3.81852
470.5	3.81303
471	3.80756
471.5	3.8021
472	3.79666
472.5	3.79123
473	3.78581
473.5	3.7804
474	3.77501
474.5	3.76963
475	3.76427
475.5	3.75892
476	3.75358
476.5	3.74825
477	3.74294
477.5	3.73764
478	3.73236
478.5	3.72708
479	3.72182
479.5	3.71658
480	3.71134
480.5	3.70612
481	3.70091
481.5	3.69572
482	3.69053
482.5	3.68536
483	3.68021
483.5	3.67506
484	3.66993
484.5	3.66481
485	3.6597
485.5	3.6546
486	3.64952
486.5	3.64445
487	3.63939
487.5	3.63434
488	3.62931
488.5	3.62429
489	3.61928
489.5	3.61428
490	3.60929
490.5	3.60432
491	3.59936
491.5	3.59441
492	3.58947
492.5	3.58454
493	3.57963
493.5	3.57472
494	3.56983
494.5	3.56495
495	3.56008
495.5	3.55523
496	3.55038
496.5	3.54555
497	3.54072
497.5	3.53591
498	3.53111
498.5	3.52632
499	3.52155
499.5	3.51678
500	3.51203
500.5	3.50728
501	3.50255
501.5	3.49783
502	3.49312
502.5	3.48842
503	3.48373
503.5	3.47906
504	3.47439
504.5	3.46973
505	3.46509
505.5	3.46046
506	3.45583
506.5	3.45122
507	3.44662
507.5	3.44203
508	3.43745
508.5	3.43288
509	3.42832
509.5	3.42377
510	3.41923
510.5	3.4147
511	3.41019
511.5	3.40568
512	3.40118
512.5	3.3967
513	3.39222
513.5	3.38775
514	3.3833
514.5	3.37885
515	3.37442
515.5	3.36999
516	3.36558
516.5	3.36117
517	3.35678
517.5	3.35239
518	3.34802
518.5	3.34365
519	3.3393
519.5	3.33495
520	3.33062
520.5	3.32629
521	3.32198
521.5	3.31767
522	3.31337
522.5	3.30909
523	3.30481
523.5	3.30054
524	3.29629
524.5	3.29204
525	3.2878
525.5	3.28357
526	3.27935
526.5	3.27514
527	3.27094
527.5	3.26675
528	3.26256
528.5	3.25839
529	3.25423
529.5	3.25007
530	3.24593
530.5	3.24179
531	3.23766
531.5	3.23354
532	3.22944
532.5	3.22534
533	3.22125
533.5	3.21716
534	3.21309
534.5	3.20903
535	3.20497
535.5	3.20093
536	3.19689
536.5	3.19286
537	3.18884
537.5	3.18483
538	3.18083
538.5	3.17684
539	3.17285
539.5	3.16888
540	3.16491
540.5	3.16095
541	3.157
541.5	3.15306
542	3.14913
542.5	3.1452
543	3.14129
543.5	3.13738
544	3.13348
544.5	3.12959
545	3.12571
545.5	3.12184
546	3.11797
546.5	3.11412
547	3.11027
547.5	3.10643
548	3.10259
548.5	3.09877
549	3.09495
549.5	3.09115
550	3.08735
550.5	3.08356
551	3.07977
551.5	3.076
552	3.07223
552.5	3.06847
553	3.06472
553.5	3.06098
554	3.05724
554.5	3.05352
555	3.0498
555.5	3.04609
556	3.04238
556.5	3.03869
557	3.035
557.5	3.03132
558	3.02765
558.5	3.02398
559	3.02032
559.5	3.01668
560	3.01303
560.5	3.0094
561	3.00577
561.5	3.00215
562	2.99854
562.5	2.99494
563	2.99134
563.5	2.98776
564	2.98417
564.5	2.9806
565	2.97703
565.5	2.97348
566	2.96992
566.5	2.96638
567	2.96284
567.5	2.95931
568	2.95579
568.5	2.95228
569	2.94877
569.5	2.94527
570	2.94178
570.5	2.93829
571	2.93481
571.5	2.93134
572	2.92788
572.5	2.92442
573	2.92097
573.5	2.91753
574	2.91409
574.5	2.91066
575	2.90724
575.5	2.90382
576	2.90042
576.5	2.89701
577	2.89362
577.5	2.89023
578	2.88685
578.5	2.88348
579	2.88011
579.5	2.87675
580	2.8734
580.5	2.87005
581	2.86671
581.5	2.86338
582	2.86006
582.5	2.85674
583	2.85342
583.5	2.85012
584	2.84682
584.5	2.84353
585	2.84024
585.5	2.83696
586	2.83369
586.5	2.83042
587	2.82716
587.5	2.82391
588	2.82066
588.5	2.81742
589	2.81419
589.5	2.81096
590	2.80774
590.5	2.80453
591	2.80132
591.5	2.79812
592	2.79492
592.5	2.79173
593	2.78855
593.5	2.78538
594	2.78221
594.5	2.77904
595	2.77588
595.5	2.77273
596	2.76959
596.5	2.76645
597	2.76332
597.5	2.76019
598	2.75707
598.5	2.75396
599	2.75085
599.5	2.74775
600	2.74465
600.5	2.74156
601	2.73848
601.5	2.7354
602	2.73233
602.5	2.72926
603	2.7262
603.5	2.72315
604	2.7201
604.5	2.71706
605	2.71402
605.5	2.71099
606	2.70797
606.5	2.70495
607	2.70194
607.5	2.69893
608	2.69593
608.5	2.69293
609	2.68995
609.5	2.68696
610	2.68398
610.5	2.68101
611	2.67805
611.5	2.67508
612	2.67213
612.5	2.66918
613	2.66624
613.5	2.6633
614	2.66037
614.5	2.65744
615	2.65452
615.5	2.6516
616	2.64869
616.5	2.64579
617	2.64289
617.5	2.64
618	2.63711
618.5	2.63423
619	2.63135
619.5	2.62848
620	2.62561
620.5	2.62275
621	2.6199
621.5	2.61705
622	2.6142
622.5	2.61136
623	2.60853
623.5	2.6057
624	2.60288
624.5	2.60006
625	2.59725
625.5	2.59444
626	2.59164
626.5	2.58884
627	2.58605
627.5	2.58327
628	2.58049
628.5	2.57771
629	2.57494
629.5	2.57218
630	2.56941
630.5	2.56666
631	2.56391
631.5	2.56117
632	2.55843
632.5	2.55569
633	2.55296
633.5	2.55024
634	2.54752
634.5	2.5448
635	2.5421
635.5	2.53939
636	2.53669
636.5	2.534
637	2.53131
637.5	2.52862
638	2.52594
638.5	2.52327
639	2.5206
639.5	2.51794
640	2.51528
640.5	2.51262
641	2.50997
641.5	2.50733
642	2.50469
642.5	2.50205
643	2.49942
643.5	2.4968
644	2.49417
644.5	2.49156
645	2.48895
645.5	2.48634
646	2.48374
646.5	2.48114
647	2.47855
647.5	2.47596
648	2.47338
648.5	2.4708
649	2.46823
649.5	2.46566
650	2.46309
650.5	2.46053
651	2.45798
651.5	2.45543
652	2.45288
652.5	2.45034
653	2.4478
653.5	2.44527
654	2.44274
654.5	2.44022
655	2.4377
655.5	2.43519
656	2.43268
656.5	2.43017
657	2.42767
657.5	2.42518
658	2.42269
658.5	2.4202
659	2.41772
659.5	2.41524
660	2.41276
660.5	2.41029
661	2.40783
661.5	2.40537
662	2.40291
662.5	2.40046
663	2.39801
663.5	2.39557
664	2.39313
664.5	2.3907
665	2.38827
665.5	2.38584
666	2.38342
666.5	2.381
667	2.37859
667.5	2.37618
668	2.37377
668.5	2.37137
669	2.36898
669.5	2.36658
670	2.3642
670.5	2.36181
671	2.35943
671.5	2.35706
672	2.35469
672.5	2.35232
673	2.34996
673.5	2.3476
674	2.34524
674.5	2.34289
675	2.34055
675.5	2.3382
676	2.33587
676.5	2.33353
677	2.3312
677.5	2.32888
678	2.32655
678.5	2.32423
679	2.32192
679.5	2.31961
680	2.3173
680.5	2.315
681	2.3127
681.5	2.31041
682	2.30812
682.5	2.30583
683	2.30355
683.5	2.30127
684	2.299
684.5	2.29673
685	2.29446
685.5	2.2922
686	2.28994
686.5	2.28769
687	2.28543
687.5	2.28319
688	2.28094
688.5	2.2787
689	2.27647
689.5	2.27424
690	2.27201
690.5	2.26978
691	2.26756
691.5	2.26535
692	2.26313
692.5	2.26092
693	2.25872
693.5	2.25652
694	2.25432
694.5	2.25212
695	2.24993
695.5	2.24775
696	2.24556
696.5	2.24338
697	2.24121
697.5	2.23904
698	2.23687
698.5	2.2347
699	2.23254
699.5	2.23038
700	2.22823
700.5	2.22608
701	2.22393
701.5	2.22179
702	2.21965
702.5	2.21751
703	2.21538
703.5	2.21325
704	2.21113
704.5	2.209
705	2.20689
705.5	2.20477
706	2.20266
706.5	2.20055
707	2.19845
707.5	2.19635
708	2.19425
708.5	2.19216
709	2.19007
709.5	2.18798
710	2.1859
710.5	2.18382
711	2.18174
711.5	2.17967
712	2.1776
712.5	2.17553
713	2.17347
713.5	2.17141
714	2.16935
714.5	2.1673
715	2.16525
715.5	2.16321
716	2.16116
716.5	2.15913
717	2.15709
717.5	2.15506
718	2.15303
718.5	2.151
719	2.14898
719.5	2.14696
720	2.14494
720.5	2.14293
721	2.14092
721.5	2.13892
722	2.13691
722.5	2.13491
723	2.13292
723.5	2.13093
724	2.12894
724.5	2.12695
725	2.12497
725.5	2.12299
726	2.12101
726.5	2.11904
727	2.11706
727.5	2.1151
728	2.11313
728.5	2.11117
729	2.10921
729.5	2.10726
730	2.10531
730.5	2.10336
731	2.10142
731.5	2.09947
732	2.09753
732.5	2.0956
733	2.09367
733.5	2.09174
734	2.08981
734.5	2.08789
735	2.08597
735.5	2.08405
736	2.08213
736.5	2.08022
737	2.07831
737.5	2.07641
738	2.07451
738.5	2.07261
739	2.07071
739.5	2.06882
740	2.06693
740.5	2.06504
741	2.06316
741.5	2.06128
742	2.0594
742.5	2.05752
743	2.05565
743.5	2.05378
744	2.05192
744.5	2.05005
745	2.04819
745.5	2.04634
746	2.04448
746.5	2.04263
747	2.04078
747.5	2.03894
748	2.03709
748.5	2.03525
749	2.03342
749.5	2.03158
750	2.02975
750.5	2.02792
751	2.0261
751.5	2.02427
752	2.02245
752.5	2.02064
753	2.01882
753.5	2.01701
754	2.0152
754.5	2.0134
755	2.0116
755.5	2.0098
756	2.008
756.5	2.0062
757	2.00441
757.5	2.00262
758	2.00084
758.5	1.99905
759	1.99727
759.5	1.9955
760	1.99372
760.5	1.99195
761	1.99018
761.5	1.98841
762	1.98665
762.5	1.98489
763	1.98313
763.5	1.98137
764	1.97962
764.5	1.97787
765	1.97612
765.5	1.97438
766	1.97263
766.5	1.97089
767	1.96916
767.5	1.96742
768	1.96569
768.5	1.96396
769	1.96223
769.5	1.96051
770	1.95879
770.5	1.95707
771	1.95535
771.5	1.95364
772	1.95193
772.5	1.95022
773	1.94852
773.5	1.94681
774	1.94511
774.5	1.94341
775	1.94172
775.5	1.94003
776	1.93834
776.5	1.93665
777	1.93496
777.5	1.93328
778	1.9316
778.5	1.92992
779	1.92825
779.5	1.92658
780	1.92491
780.5	1.92324
781	1.92158
781.5	1.91991
782	1.91825
782.5	1.9166
783	1.91494
783.5	1.91329
784	1.91164
784.5	1.90999
785	1.90835
785.5	1.9067
786	1.90506
786.5	1.90343
787	1.90179
787.5	1.90016
788	1.89853
788.5	1.8969
789	1.89528
789.5	1.89365
790	1.89203
790.5	1.89041
791	1.8888
791.5	1.88719
792	1.88558
792.5	1.88397
793	1.88236
793.5	1.88076
794	1.87916
794.5	1.87756
795	1.87596
795.5	1.87437
796	1.87277
796.5	1.87118
797	1.8696
797.5	1.86801
798	1.86643
798.5	1.86485
799	1.86327
799.5	1.8617
800	1.86012
800.5	1.85855
801	1.85698
801.5	1.85542
802	1.85385
802.5	1.85229
803	1.85073
803.5	1.84917
804	1.84762
804.5	1.84607
805	1.84452
805.5	1.84297
806	1.84142
806.5	1.83988
807	1.83834
807.5	1.8368
808	1.83526
808.5	1.83373
809	1.8322
809.5	1.83067
810	1.82914
810.5	1.82761
811	1.82609
811.5	1.82457
812	1.82305
812.5	1.82153
813	1.82002
813.5	1.8185
814	1.81699
814.5	1.81549
815	1.81398
815.5	1.81248
816	1.81097
816.5	1.80947
817	1.80798
817.5	1.80648
818	1.80499
818.5	1.8035
819	1.80201
819.5	1.80052
820	1.79904
820.5	1.79756
821	1.79608
821.5	1.7946
822	1.79312
822.5	1.79165
823	1.79018
823.5	1.78871
824	1.78724
824.5	1.78577
825	1.78431
825.5	1.78285
826	1.78139
826.5	1.77993
827	1.77848
827.5	1.77703
828	1.77557
828.5	1.77413
829	1.77268
829.5	1.77123
830	1.76979
830.5	1.76835
831	1.76691
831.5	1.76548
832	1.76404
832.5	1.76261
833	1.76118
833.5	1.75975
834	1.75832
834.5	1.7569
835	1.75548
835.5	1.75406
836	1.75264
836.5	1.75122
837	1.74981
837.5	1.74839
838	1.74698
838.5	1.74558
839	1.74417
839.5	1.74276
840	1.74136
840.5	1.73996
841	1.73856
841.5	1.73717
842	1.73577
842.5	1.73438
843	1.73299
843.5	1.7316
844	1.73021
844.5	1.72883
845	1.72744
845.5	1.72606
846	1.72468
846.5	1.7233
847	1.72193
847.5	1.72056
848	1.71918
848.5	1.71781
849	1.71645
849.5	1.71508
850	1.71372
850.5	1.71235
851	1.71099
851.5	1.70964
852	1.70828
852.5	1.70692
853	1.70557
853.5	1.70422
854	1.70287
854.5	1.70152
855	1.70018
855.5	1.69884
856	1.69749
856.5	1.69615
857	1.69482
857.5	1.69348
858	1.69215
858.5	1.69081
859	1.68948
859.5	1.68815
860	1.68683
860.5	1.6855
861	1.68418
861.5	1.68286
862	1.68154
862.5	1.68022
863	1.6789
863.5	1.67759
864	1.67627
864.5	1.67496
865	1.67365
865.5	1.67235
866	1.67104
866.5	1.66974
867	1.66844
867.5	1.66714
868	1.66584
868.5	1.66454
869	1.66325
869.5	1.66195
870	1.66066
870.5	1.65937
871	1.65808
871.5	1.6568
872	1.65551
872.5	1.65423
873	1.65295
873.5	1.65167
874	1.65039
874.5	1.64912
